"Time (s)","Acceleration x (m/s^2)","Acceleration y (m/s^2)","Acceleration z (m/s^2)","Absolute acceleration (m/s^2)"
2.874625032E-3,4.191284180E-2,-7.332801361E0,-2.859204254E0,7.870627767E0
1.293162501E-2,-4.905299377E-1,-8.095615082E0,-2.977009277E0,8.639571020E0
2.298862505E-2,-8.434959412E-1,-9.781259766E0,-3.079546051E0,1.028922407E1
3.304562502E-2,-1.084345093E0,-1.223645416E1,-3.154540100E0,1.268297039E1
4.310262500E-2,-1.260379028E0,-1.496767456E1,-3.447331238E0,1.541116250E1
5.315962504E-2,-1.468895416E0,-1.827893875E1,-3.542084198E0,1.867682029E1
6.321662501E-2,-1.482367401E0,-2.126627655E1,-3.070864105E0,2.153792325E1
7.327362505E-2,-8.566685486E-1,-2.146880539E1,-2.699486389E0,2.165480807E1
8.333062503E-2,-1.901046753E-2,-1.953662338E1,-2.391876068E0,1.968250710E1
9.338762501E-2,7.464976501E-1,-1.652862854E1,-2.066003723E0,1.667396748E1
1.034446250E-1,1.429527283E0,-1.336944809E1,-1.769320679E0,1.356157019E1
1.135016250E-1,2.248773651E0,-1.072399933E1,-1.912423096E0,1.112288212E1
1.235586250E-1,3.140918427E0,-9.079668732E0,-1.859283600E0,9.785841218E0
1.336156250E-1,3.682641907E0,-7.503745880E0,-1.511407013E0,8.494257166E0
1.436726250E-1,3.995641022E0,-6.086792450E0,-8.674461365E-1,7.332574739E0
1.537296250E-1,3.800147552E0,-5.069208527E0,6.242019653E-2,6.335763000E0
1.637866250E-1,3.302731934E0,-4.682113495E0,5.984555054E-1,5.760935167E0
1.738436250E-1,2.750979309E0,-4.946912842E0,1.030307465E0,5.753378772E0
1.839006250E-1,1.992805939E0,-5.698948975E0,1.695524139E0,6.270892842E0
1.939576250E-1,1.163081360E0,-5.996380463E0,1.568438416E0,6.306293362E0
2.040146251E-1,4.288581848E-1,-5.667214966E0,9.662406921E-1,5.764968854E0
2.140716250E-1,-3.948788452E-1,-5.655090179E0,5.583389282E-1,5.696289722E0
2.241286250E-1,-8.979826355E-1,-5.842799835E0,3.966751099E-1,5.924696943E0
2.341856250E-1,-1.133892059E0,-5.927673340E0,4.403842163E-1,6.051194980E0
2.442426250E-1,-1.158590698E0,-5.968837738E0,6.011499023E-1,6.109888506E0
2.542996250E-1,-1.099912720E0,-6.028264160E0,7.559280396E-1,6.174237117E0
2.643566250E-1,-9.078620911E-1,-6.311325531E0,8.084687805E-1,6.427337342E0
2.744136250E-1,-5.710624695E-1,-6.515201569E0,8.924441528E-1,6.600789376E0
2.844706250E-1,-2.715353394E-1,-6.730154572E0,1.059496765E0,6.818448899E0
2.945276250E-1,9.580078125E-2,-6.878047028E0,1.292711792E0,6.999129409E0
3.045836251E-1,3.499722290E-1,-7.003336487E0,1.586700439E0,7.189354685E0
3.146406250E-1,4.852908325E-1,-7.215744781E0,1.878743134E0,7.472091789E0
3.246986250E-1,5.996530151E-1,-7.449857941E0,2.115850067E0,7.767675880E0
3.347546250E-1,7.780819702E-1,-7.439529419E0,2.272574158E0,7.817710843E0
3.448116250E-1,1.043180695E0,-7.598947906E0,2.456242218E0,8.053903469E0
3.548686250E-1,1.521585846E0,-7.779771881E0,2.667303314E0,8.363885519E0
3.649256250E-1,2.092947693E0,-8.198600922E0,2.875071259E0,8.936639293E0
3.749826250E-1,2.565365295E0,-9.015452271E0,3.162174225E0,9.892361931E0
3.850396250E-1,2.744243317E0,-1.017164795E1,3.614533539E0,1.113813926E1
3.950966250E-1,2.814896393E0,-1.218660782E1,3.883075104E0,1.309638592E1
4.051536250E-1,3.412603455E0,-1.451037552E1,3.936064911E0,1.541718090E1
4.152106250E-1,3.949237518E0,-1.512529678E1,3.594774628E0,1.604037046E1
4.252676250E-1,3.677702179E0,-1.463386871E1,3.432811432E0,1.547448872E1
4.353246251E-1,3.347638550E0,-1.406609940E1,4.160148926E0,1.504555333E1
4.453816250E-1,3.226989441E0,-1.339055420E1,5.113666077E0,1.469251453E1
4.554386250E-1,3.359314270E0,-1.266531235E1,5.642516327E0,1.426650342E1
4.654956250E-1,3.592678986E0,-1.222148529E1,5.370831299E0,1.382453883E1
4.755526250E-1,3.898493042E0,-1.236009705E1,3.534150696E0,1.343355754E1
4.856106250E-1,3.380270691E0,-1.297277298E1,1.881587219E0,1.353733501E1
4.956676250E-1,1.334175568E0,-1.359053833E1,1.576222229E0,1.374653531E1
5.057246250E-1,-2.568658447E-1,-1.279449371E1,2.085912323E0,1.296595849E1
5.157816250E-1,-5.932164001E-1,-1.137544464E1,8.725355530E-1,1.142427086E1
5.258386250E-1,-1.005159760E0,-1.043480072E1,-2.128274231E0,1.069696048E1
5.358956250E-1,-2.040556641E0,-9.487869873E0,-3.442990265E0,1.029746222E1
5.459526250E-1,-3.325484619E0,-9.114695892E0,-2.599793701E0,1.004467304E1
5.560096250E-1,-3.497476959E0,-9.383536835E0,-1.459914093E0,1.012000285E1
5.660666250E-1,-2.807411957E0,-9.903555450E0,-1.732197876E0,1.043850956E1
5.761236250E-1,-2.052382050E0,-1.036055511E1,-2.723436584E0,1.090735904E1
5.861806250E-1,-2.015259247E0,-1.111573471E1,-2.257754974E0,1.152034225E1
5.962376251E-1,-1.988464966E0,-1.256816437E1,-1.471440125E0,1.280928899E1
6.062946250E-1,-1.294208679E0,-1.427476547E1,-9.711804199E-1,1.436617892E1
6.163516250E-1,1.781295776E-2,-1.568573135E1,-1.021475830E0,1.571896620E1
6.264086250E-1,1.205592957E0,-1.560220505E1,-1.209484863E0,1.569538500E1
6.364656250E-1,1.719174957E0,-1.389994492E1,-1.154848480E0,1.405338771E1
6.465226250E-1,1.661993866E0,-1.211939758E1,-8.514294434E-1,1.226242038E1
6.565796250E-1,1.264570312E0,-1.115285751E1,-5.596861267E-1,1.123826576E1
6.666366250E-1,6.569837952E-1,-1.049781967E1,-4.821473694E-1,1.052940225E1
6.766936250E-1,-8.202941895E-2,-1.001567230E1,-4.602928162E-1,1.002657918E1
6.867506250E-1,-9.367520142E-1,-9.497300262E0,-6.406677246E-1,9.564866530E0
6.968076250E-1,-1.809437256E0,-9.188642120E0,-3.611988831E-1,9.372068706E0
7.068646250E-1,-2.488874359E0,-8.763975220E0,-1.371148682E-1,9.111561760E0
7.169216250E-1,-2.911146240E0,-8.188721466E0,-1.242416382E-1,8.691683822E0
7.269786251E-1,-2.758463745E0,-7.179071045E0,9.789642334E-2,7.691408649E0
7.370356250E-1,-1.983674927E0,-6.173312531E0,1.073268127E-1,6.485080790E0
7.470926250E-1,-1.182989960E0,-5.688620453E0,1.535806274E-1,5.812353646E0
7.571496250E-1,-6.638694763E-1,-5.548511810E0,3.023712158E-1,5.596260746E0
7.672066250E-1,-1.814227295E-1,-5.630990295E0,3.189866638E-1,5.642935265E0
7.772636250E-1,1.707948303E-1,-5.903723145E0,2.206411743E-1,5.910313052E0
7.873206250E-1,4.647834778E-1,-6.471193085E0,7.634124756E-3,6.487867284E0
7.973776250E-1,8.162525940E-1,-7.225474548E0,-4.161346436E-2,7.271552958E0
8.074346251E-1,1.133293304E0,-8.053402863E0,1.935475159E-1,8.135054519E0
8.174906250E-1,1.397194519E0,-8.769064636E0,2.344125366E-1,8.882769633E0
8.275476250E-1,1.598525848E0,-9.129515076E0,3.261717224E-1,9.274142462E0
8.376046250E-1,1.621278534E0,-9.320068817E0,3.827540588E-1,9.467773102E0
8.476616250E-1,1.703008575E0,-9.317374420E0,4.875361633E-1,9.484270969E0
8.577186250E-1,1.859133911E0,-9.178014221E0,8.102650452E-1,9.399407076E0
8.677756250E-1,2.076332245E0,-9.037606201E0,1.271455994E0,9.359812059E0
8.778326250E-1,2.079176331E0,-8.848249969E0,1.458866272E0,9.205584856E0
8.878896250E-1,2.091450806E0,-8.592282257E0,1.422491913E0,8.956838957E0
8.979466250E-1,2.012564850E0,-8.291707306E0,1.450034637E0,8.654792185E0
9.080036251E-1,1.777852936E0,-8.086184692E0,1.562600555E0,8.425488973E0
9.180606250E-1,1.684896240E0,-7.549400940E0,1.814676361E0,7.945148217E0
9.281176250E-1,1.751507721E0,-7.065307617E0,2.021246796E0,7.554587324E0
9.381746250E-1,1.882036285E0,-6.881789246E0,2.100881195E0,7.437391048E0
9.482316250E-1,1.742227020E0,-7.037764893E0,2.349214783E0,7.621305647E0
9.582886250E-1,1.329834595E0,-7.857460327E0,2.580334167E0,8.376530741E0
9.683456250E-1,8.716374207E-1,-9.318871307E0,2.996019745E0,9.827372413E0
9.784026250E-1,1.001417542E0,-1.042132874E1,3.295247498E0,1.097568156E1
9.884596250E-1,1.364562378E0,-1.142978165E1,3.108735352E0,1.192334577E1
9.985166250E-1,1.795067139E0,-1.234737350E1,2.779120789E0,1.278293436E1
1.008573625E0,2.359543304E0,-1.295855255E1,2.576142883E0,1.342117882E1
1.018630625E0,2.888992310E0,-1.316033295E1,2.229613495E0,1.365693290E1
1.028687625E0,3.053799591E0,-1.276710068E1,1.612596588E0,1.322592225E1
1.038744625E0,3.396586761E0,-1.197434921E1,9.238787842E-1,1.248100127E1
1.048801625E0,3.791615295E0,-1.145448029E1,2.058219910E-1,1.206746982E1
1.058858625E0,2.988984375E0,-1.100092346E1,-5.743556213E-1,1.141421171E1
1.068915625E0,2.098486176E0,-1.022763153E1,-1.323847046E0,1.052428914E1
1.078972625E0,1.842069397E0,-9.290131073E0,-1.805395660E0,9.641535589E0
1.089029625E0,1.554367676E0,-8.494236145E0,-2.069745941E0,8.879862320E0
1.099086625E0,1.397942963E0,-7.991132355E0,-2.144889679E0,8.391244995E0
1.109143625E0,1.649420013E0,-7.432194672E0,-2.214494934E0,7.928561776E0
1.119200625E0,1.505120087E0,-6.706653442E0,-2.575394440E0,7.340111947E0
1.129257625E0,9.654922485E-1,-6.202202454E0,-2.778072968E0,6.864195508E0
1.139314625E0,5.257067871E-1,-6.298601990E0,-2.937042389E0,6.969574782E0
1.149371625E0,1.197509766E-1,-7.385192413E0,-3.164569244E0,8.035540167E0
1.159428625E0,-2.986289978E-1,-9.686057739E0,-3.395538940E0,1.026832891E1
1.169485625E0,-8.029302979E-1,-1.276545410E1,-3.416645050E0,1.323914570E1
1.179542625E0,-1.168170776E0,-1.590517502E1,-3.750750275E0,1.638314204E1
1.189599625E0,-1.412911835E0,-2.035796539E1,-3.761827240E0,2.075076912E1
1.199656625E0,-1.347797241E0,-2.378224457E1,-2.687511292E0,2.397153376E1
1.209713625E0,-7.818241882E-1,-2.336401428E1,-1.911075897E0,2.345507671E1
1.219770625E0,3.785627747E-1,-2.103051682E1,-1.719624023E0,2.110410041E1
1.229827625E0,1.771266632E0,-1.695404388E1,-1.364861755E0,1.710087241E1
1.239884625E0,2.598296814E0,-1.259016861E1,-1.054257660E0,1.289864145E1
1.249941625E0,3.441942444E0,-1.039707916E1,-1.028062134E0,1.100014248E1
1.259998625E0,4.341571655E0,-8.430019684E0,-1.081501007E0,9.543800120E0
1.270055625E0,4.884642334E0,-6.817123718E0,-7.298822021E-1,8.418172875E0
1.280112625E0,5.074447632E0,-5.271737366E0,-3.507206726E-1,7.325587936E0
1.290169625E0,4.548142090E0,-4.114793243E0,1.270857239E-1,6.134596212E0
1.300226625E0,3.631298676E0,-4.758903809E0,1.240320740E0,6.113255358E0
1.310283625E0,2.596799927E0,-5.958509216E0,1.728455658E0,6.725679215E0
1.320340625E0,1.893113251E0,-6.239924011E0,1.610650635E0,6.716749579E0
1.330397625E0,1.309476929E0,-6.019731903E0,1.195264435E0,6.275393142E0
1.340454625E0,3.607498169E-1,-6.072122955E0,7.849676514E-1,6.133269261E0
1.350511625E0,-3.210823059E-1,-6.085744629E0,5.279521179E-1,6.117034819E0
1.360568625E0,-7.711962891E-1,-6.157445526E0,3.689826965E-1,6.216512475E0
1.370625625E0,-1.107397156E0,-6.270460510E0,4.550537109E-1,6.383735376E0
1.380681625E0,-1.129551086E0,-6.444398804E0,7.926017761E-1,6.590476400E0
1.390738625E0,-9.931846619E-1,-6.744674377E0,1.147064667E0,6.913234090E0
1.400795625E0,-6.968009949E-1,-6.829996948E0,1.296753387E0,6.986841868E0
1.410852625E0,-2.484832764E-1,-6.755451965E0,1.260528717E0,6.876540398E0
1.420909625E0,2.833607483E-1,-6.652765503E0,1.368304596E0,6.797929068E0
1.430966625E0,7.821235657E-1,-6.377338257E0,1.406175842E0,6.577194768E0
1.441023625E0,1.170116730E0,-6.144572296E0,1.508413239E0,6.434302788E0
1.451080625E0,1.293909302E0,-6.002068634E0,1.796114960E0,6.397269583E0
1.461137625E0,1.241817627E0,-6.077062683E0,2.089055786E0,6.544994725E0
1.471194625E0,1.155896301E0,-6.089486847E0,2.172432404E0,6.567907495E0
1.481251625E0,1.227297821E0,-6.051166534E0,2.288590851E0,6.584870876E0
1.491308375E0,1.624721375E0,-6.486760712E0,2.637964325E0,7.188646594E0
1.501365375E0,2.088457031E0,-7.624993744E0,3.110531616E0,8.495739479E0
1.511422375E0,2.430944824E0,-8.959169312E0,3.214565277E0,9.823931871E0
1.521479375E0,2.841690674E0,-1.057131683E1,3.226540375E0,1.141220874E1
1.531536375E0,3.087479553E0,-1.231938171E1,3.051554260E0,1.306184058E1
1.541593375E0,3.445834351E0,-1.458686646E1,2.786006470E0,1.524507394E1
1.551650375E0,3.796405334E0,-1.626338013E1,2.079775085E0,1.682960757E1
1.561707375E0,3.779191132E0,-1.632250717E1,2.109263763E0,1.688654848E1
1.571764375E0,3.395838318E0,-1.522633667E1,3.403023376E0,1.596726697E1
1.581821375E0,3.436254272E0,-1.424916870E1,4.987029419E0,1.548280060E1
1.591878375E0,3.805536346E0,-1.336061646E1,6.443201294E0,1.531349150E1
1.601935375E0,4.347110138E0,-1.236518646E1,6.623127136E0,1.468540145E1
1.611992375E0,4.818330231E0,-1.186986649E1,4.792434082E0,1.367762629E1
1.622049375E0,4.127965851E0,-1.278132111E1,2.747237091E0,1.370947056E1
1.632106375E0,2.457439728E0,-1.445663727E1,2.566712494E0,1.488695349E1
1.642163375E0,1.129102020E0,-1.368514160E1,2.706970825E0,1.399591594E1
1.652220375E0,-1.013392639E-1,-1.125928619E1,2.383493500E0,1.150925004E1
1.662277375E0,-1.162781982E0,-9.880952454E0,5.176235962E-1,9.962590904E0
1.672334375E0,-2.189496918E0,-9.223070526E0,-2.505639496E0,9.804955684E0
1.682391375E0,-3.162174225E0,-8.609795837E0,-2.767295380E0,9.580493406E0
1.692448375E0,-4.109105072E0,-8.711135101E0,-1.362167358E0,9.727492953E0
1.702505375E0,-3.908522186E0,-9.193282471E0,-1.383123779E0,1.008494024E1
1.712561375E0,-3.018173676E0,-9.649234314E0,-2.188449097E0,1.034439001E1
1.722618375E0,-2.464325409E0,-1.037941589E1,-1.774410095E0,1.081451364E1
1.732675375E0,-1.886526947E0,-1.176433594E1,-1.424737244E0,1.199951916E1
1.742732375E0,-1.176403656E0,-1.304956329E1,-1.112037506E0,1.314958764E1
1.752789375E0,-4.111949158E-1,-1.420635773E1,-8.937913513E-1,1.424038427E1
1.762846375E0,8.881031799E-1,-1.498878067E1,-7.237449646E-1,1.503250079E1
1.772903375E0,2.198178864E0,-1.466919525E1,-4.935237122E-1,1.484118746E1
1.782960375E0,2.802023163E0,-1.305749680E1,-5.269042969E-1,1.336514813E1
1.793017375E0,2.647394714E0,-1.146271317E1,-5.510041809E-1,1.177735528E1
1.803074375E0,2.147584076E0,-1.040725800E1,-4.287084961E-1,1.063517406E1
1.813131375E0,1.143771515E0,-9.766290894E0,-4.128414917E-1,9.841701540E0
1.823188375E0,-2.290237427E-2,-9.259145508E0,-2.631527710E-1,9.262912578E0
1.833245375E0,-1.089584198E0,-9.002579041E0,-1.939965820E-1,9.070350477E0
1.843302375E0,-1.890718231E0,-8.915460205E0,-3.439846802E-1,9.120228701E0
1.853359375E0,-2.606679382E0,-8.615334320E0,-4.436773682E-1,9.011970509E0
1.863416375E0,-2.868934021E0,-8.125403137E0,-3.339555359E-1,8.623484496E0
1.873473375E0,-2.518961792E0,-7.200476532E0,-1.010398865E-1,7.629039249E0
1.883530375E0,-1.707648926E0,-6.131399689E0,5.822891235E-2,6.365022985E0
1.893587375E0,-1.017134857E0,-5.658083954E0,2.335144043E-2,5.748827936E0
1.903644375E0,-4.719685364E-1,-5.454507294E0,3.861968994E-2,5.475024712E0
1.913701375E0,-1.707948303E-1,-5.607040100E0,5.149291992E-2,5.609877100E0
1.923758375E0,9.684860229E-2,-5.902675323E0,-1.471440125E-1,5.905303293E0
1.933815375E0,3.296145630E-1,-6.308182068E0,-4.165837097E-1,6.330509359E0
1.943872375E0,4.254153442E-1,-6.891219635E0,-5.258564758E-1,6.924334719E0
1.953929375E0,6.535409546E-1,-7.621550903E0,-4.339476013E-1,7.661818614E0
1.963986375E0,9.422904968E-1,-8.352031860E0,-1.892065430E-1,8.407148547E0
1.974043375E0,1.130449219E0,-8.930429077E0,-1.651066589E-1,9.003207159E0
1.984100375E0,1.231788483E0,-9.335786133E0,-9.580078125E-2,9.417185534E0
1.994157375E0,1.359323273E0,-9.716594238E0,2.475851440E-1,9.814339598E0
2.004214375E0,1.460213470E0,-1.002974304E1,6.400689697E-1,1.015567118E1
2.014271375E0,1.521136780E0,-1.022837997E1,1.097218323E0,1.039891831E1
2.024328375E0,1.653311920E0,-1.018661682E1,1.397643585E0,1.041412551E1
2.034385375E0,1.924996948E0,-9.931397552E0,1.514251099E0,1.022894066E1
2.044442375E0,2.177521820E0,-9.524244232E0,1.622925110E0,9.903873756E0
2.054499375E0,2.160157928E0,-8.981173553E0,1.669328613E0,9.386928075E0
2.064556375E0,1.938768311E0,-8.262667694E0,1.651815033E0,8.646328289E0
2.074612375E0,1.803599396E0,-7.548802185E0,1.886676636E0,7.987298288E0
2.084669375E0,1.937421112E0,-7.107519836E0,2.050286407E0,7.646836806E0
2.094726375E0,2.057621155E0,-7.033274231E0,2.006577301E0,7.597835461E0
2.104783375E0,1.845661926E0,-7.479645996E0,2.043999481E0,7.970539885E0
2.114840375E0,1.230291595E0,-8.703800354E0,2.040406952E0,9.024024520E0
2.124897375E0,7.297325134E-1,-1.027134064E1,1.915416870E0,1.047386127E1
2.134954375E0,5.426216125E-1,-1.148756149E1,1.842368774E0,1.164700949E1
2.145011375E0,6.689588928E-1,-1.215038315E1,1.977986755E0,1.232849335E1
2.155068375E0,1.181942139E0,-1.258762390E1,2.200573883E0,1.283307399E1
2.165125375E0,2.040706329E0,-1.264240997E1,2.339335327E0,1.301796843E1
2.175182375E0,3.002306671E0,-1.223720261E1,2.379152527E0,1.282276646E1
2.185239375E0,3.327879639E0,-1.150806885E1,2.141297150E0,1.216945294E1
2.195296375E0,3.688779144E0,-1.080378342E1,1.862427063E0,1.156708530E1
2.205353375E0,4.167184296E0,-1.035187317E1,1.322050781E0,1.123719366E1
2.215410375E0,3.608845367E0,-9.887838135E0,5.846841431E-1,1.054205689E1
2.225467375E0,2.689756622E0,-9.201515350E0,-3.001258850E-1,9.591285158E0
2.235524375E0,2.159858551E0,-8.551716614E0,-1.113833771E0,8.890302114E0
2.245581375E0,1.832339630E0,-8.062234497E0,-1.919907532E0,8.487822956E0
2.255638375E0,1.779948578E0,-7.741601257E0,-2.337389374E0,8.280337919E0
2.265695375E0,1.782193909E0,-7.242089996E0,-2.566562805E0,7.887415754E0
2.275752375E0,1.269510040E0,-6.701414337E0,-2.699636078E0,7.335437602E0
2.285809375E0,7.789801025E-1,-6.696773987E0,-2.686762848E0,7.257567529E0
2.295866375E0,2.683918762E-1,-7.561226349E0,-2.620301056E0,8.006881773E0
2.305923375E0,-1.886077881E-2,-9.402846680E0,-2.542462921E0,9.740533821E0
2.315980375E0,7.454498291E-2,-1.214918564E1,-2.564916229E0,1.241720838E1
2.326037375E0,-4.790039062E-3,-1.508143799E1,-2.864143982E0,1.535099721E1
2.336094375E0,-3.019221497E-1,-1.850362152E1,-3.124302979E0,1.876796301E1
2.346151375E0,-6.176156616E-1,-2.199556000E1,-2.565065918E0,2.215323164E1
2.356208375E0,-3.206332397E-1,-2.241124557E1,-2.087858276E0,2.251057276E1
2.366265375E0,6.631210327E-1,-1.995455429E1,-2.182910614E0,2.008454792E1
2.376322375E0,1.688788147E0,-1.678684158E1,-2.002086639E0,1.698995017E1
2.386379375E0,2.330803070E0,-1.329834595E1,-1.940265198E0,1.363976821E1
2.396436375E0,2.928510132E0,-1.103804626E1,-2.074386292E0,1.160679609E1
2.406493375E0,3.757486267E0,-9.679471436E0,-1.810934143E0,1.053994083E1
2.416550375E0,4.166136475E0,-7.921826477E0,-1.263522491E0,9.039276351E0
2.426607375E0,4.164489899E0,-6.592890015E0,-3.616479492E-1,7.806405325E0
2.436664375E0,4.215234375E0,-5.418731689E0,3.460803223E-1,6.873909044E0
2.446720375E0,3.895948334E0,-4.720733185E0,5.062472534E-1,6.141662764E0
2.456777375E0,3.378025360E0,-4.290527802E0,1.022373962E0,5.555621718E0
2.466834375E0,2.276915131E0,-4.932243347E0,2.287093964E0,5.894248531E0
2.476891375E0,1.299447784E0,-5.890400848E0,2.753524017E0,6.630782851E0
2.486947667E0,8.042774963E-1,-6.089187469E0,1.747615814E0,6.385861521E0
2.497004667E0,4.721182251E-1,-6.112987976E0,1.116378479E0,6.231999561E0
2.507061667E0,-1.191522217E-1,-6.076912994E0,9.650431824E-1,6.154216208E0
2.517118667E0,-6.981481934E-1,-6.042783966E0,1.023870850E0,6.168546059E0
2.527175667E0,-9.319619751E-1,-6.025569763E0,1.153650970E0,6.205397220E0
2.537232667E0,-8.960366821E-1,-6.147266693E0,1.351090393E0,6.357453483E0
2.547289667E0,-7.937992859E-1,-6.496041412E0,1.532812500E0,6.721471974E0
2.557346667E0,-5.472619629E-1,-6.854246521E0,1.720671844E0,7.088081731E0
2.567403667E0,-2.465373230E-1,-7.173682251E0,1.968706055E0,7.443003508E0
2.577460667E0,-1.257385254E-2,-7.345973969E0,2.199226685E0,7.668121651E0
2.587517667E0,3.757186890E-2,-7.407196655E0,2.358196106E0,7.773613240E0
2.597574667E0,1.471440125E-1,-7.374863892E0,2.420316925E0,7.763259805E0
2.607631667E0,1.996847534E-1,-7.312743073E0,2.497256927E0,7.729966197E0
2.617688667E0,3.258723450E-1,-7.287445679E0,2.514171753E0,7.715835464E0
2.627745667E0,5.766009521E-1,-7.258855133E0,2.281256104E0,7.630699569E0
2.637802667E0,1.071621552E0,-7.472760315E0,2.253863068E0,7.878478165E0
2.647859667E0,1.660796356E0,-7.474107513E0,2.340832214E0,8.006249004E0
2.657916667E0,2.177821198E0,-7.746990051E0,2.755170593E0,8.505864155E0
2.667973667E0,2.427951050E0,-8.729696503E0,3.477418671E0,9.705410241E0
2.678030667E0,2.558778992E0,-1.044842239E1,3.738924866E0,1.138843447E1
2.688087667E0,3.089724884E0,-1.223750198E1,3.334316254E0,1.305452104E1
2.698144667E0,3.633094940E0,-1.335822144E1,3.112926636E0,1.418914272E1
2.708200667E0,3.628604279E0,-1.399050659E1,3.276686096E0,1.482017933E1
2.718257667E0,3.680097198E0,-1.393886398E1,3.691174164E0,1.488152584E1
2.728314667E0,3.714226227E0,-1.359787308E1,4.522545319E0,1.480375104E1
2.738371667E0,3.404220886E0,-1.347677490E1,5.414989471E0,1.491758334E1
