"Time (s)","Linear Acceleration x (m/s^2)","Linear Acceleration y (m/s^2)","Linear Acceleration z (m/s^2)","Absolute acceleration (m/s^2)"
3.101874987E-3,5.860137999E-1,2.181578618E-1,-5.012993395E-2,6.273101598E-1
1.304887500E-2,5.515321845E-1,3.097387075E-1,-3.963418186E-2,6.337954606E-1
2.299587498E-2,4.575393623E-1,4.059955716E-1,-6.414044738E-2,6.150517614E-1
3.294287500E-2,3.349495625E-1,4.588298428E-1,-1.029198394E-1,5.773287863E-1
4.289087499E-2,2.261738098E-1,4.614616746E-1,-1.905695289E-1,5.481042006E-1
5.283787500E-2,2.061465114E-1,4.375898319E-1,-3.539827611E-1,5.994039042E-1
6.278487499E-2,2.607226682E-1,4.905422169E-1,-6.091121290E-1,8.243940574E-1
7.273187500E-2,4.123707908E-1,6.056961125E-1,-9.591690695E-1,1.207030552E0
8.267887498E-2,6.687600875E-1,7.883993822E-1,-1.388268160E0,1.730925222E0
9.262687500E-2,9.935963058E-1,1.035399220E0,-1.784648570E0,2.290033991E0
1.025738750E-1,1.321304092E0,1.331365396E0,-2.176411434E0,2.873176822E0
1.125208750E-1,1.634759874E0,1.645214111E0,-2.618530519E0,3.497981046E0
1.224678750E-1,1.853176183E0,1.992623506E0,-3.102757743E0,4.126974196E0
1.324148750E-1,1.898910180E0,2.369228632E0,-3.455222055E0,4.599746041E0
1.423628750E-1,1.661376400E0,2.693721619E0,-3.359548159E0,4.615503389E0
1.523098750E-1,1.149074355E0,2.925759017E0,-2.602007457E0,4.080549044E0
1.622568750E-1,1.084118221E0,2.948589470E0,-1.189061708E0,3.359071290E0
1.722038750E-1,4.134127647E-1,2.836807079E0,1.363816639E-1,2.870014717E0
1.821518750E-1,-3.103538346E-1,2.816369891E0,5.181521845E-1,2.880406317E0
1.920988750E-1,-1.125334074E0,2.895304379E0,-6.433216296E-2,3.106976481E0
2.020458750E-1,-2.373814019E0,2.249503384E0,-9.804470142E-1,3.414166782E0
2.119928750E-1,-4.811194289E0,-7.406311387E-1,-8.578180381E-1,4.942871307E0
2.219398750E-1,-7.190185432E0,-3.130312162E0,1.371476126E-1,7.843241055E0
2.318878750E-1,-7.432220984E0,-3.419387979E0,1.410438462E0,8.301774483E0
2.418348750E-1,-5.781249120E0,-2.180658267E0,2.855685400E0,6.806838544E0
2.517818750E-1,-4.323096208E0,-6.067334086E-1,2.809608171E0,5.191453007E0
2.617288750E-1,-2.794032943E0,5.211985838E-1,1.757453170E0,3.341692639E0
2.716768750E-1,-7.953920674E-1,1.167461509E0,4.712484518E-1,1.489191062E0
2.816238750E-1,9.463122118E-1,1.458688517E0,-1.046095824E0,2.029185912E0
2.915708750E-1,2.108992453E0,1.627809874E0,-1.219001645E0,2.929774592E0
3.015178750E-1,2.071965544E0,1.838839980E0,-3.810583663E-1,2.796351045E0
3.114648750E-1,2.064688684E0,1.731597367E0,5.586441529E-1,2.751990569E0
3.214128750E-1,1.886514668E0,5.492687273E-1,2.320656689E0,3.040736949E0
3.313598750E-1,1.321075466E0,-1.458717168E0,3.452606303E0,3.974114549E0
3.413068750E-1,1.069954510E0,-3.887685049E0,1.297528874E0,4.235856333E0
3.512538750E-1,1.997067974E0,-6.046156055E0,-9.533098671E-1,6.438406887E0
3.612018750E-1,4.694113151E0,-7.520142642E0,5.363922814E-1,8.881157600E0
3.711488750E-1,7.412748002E0,-8.461563073E0,3.136894373E0,1.167848402E1
3.810958750E-1,9.209129010E0,-9.746471171E0,3.726500702E0,1.391720392E1
3.910428750E-1,1.050741846E1,-1.123965241E1,3.359217206E0,1.574864976E1
4.009898750E-1,1.180568511E1,-1.259410729E1,2.931176755E0,1.750935569E1
4.109378750E-1,1.221702971E1,-1.348591761E1,2.510215527E0,1.836918536E1
4.208848750E-1,1.067651994E1,-1.337732312E1,1.711570215E0,1.720088150E1
4.308321667E-1,8.678931561E0,-1.275189558E1,5.593108816E-1,1.543526879E1
4.407791667E-1,7.561832120E0,-1.226289761E1,-1.544742282E-1,1.440776961E1
4.507271667E-1,6.916070886E0,-1.176227070E1,-2.438990593E-2,1.364491273E1
4.606741667E-1,6.503836920E0,-1.058140913E1,1.178377676E-1,1.242095003E1
4.706211667E-1,5.630737111E0,-7.622084754E0,1.520147431E-1,9.477578008E0
4.805681667E-1,4.345341940E0,-3.876813905E0,-3.150409627E-1,5.831889354E0
4.905151667E-1,1.633600956E0,-8.381352139E-1,-1.231922969E0,2.211053351E0
5.004631667E-1,-4.508507323E-1,1.290879275E0,-1.735643055E0,2.209545768E0
5.104101667E-1,-1.763336053E0,2.799077920E0,-1.832972299E0,3.782060112E0
5.203571666E-1,-3.516942340E0,3.952576278E0,-1.668512927E0,5.547583082E0
5.303041667E-1,-5.578606260E0,4.808753076E0,-1.327162417E0,7.483736636E0
5.402511667E-1,-7.017455758E0,5.698720933E0,-1.400539126E0,9.147765598E0
5.501991667E-1,-7.477313542E0,6.795119476E0,-2.804561439E0,1.048567744E1
5.601461667E-1,-6.027708090E0,8.265669655E0,-5.172418900E0,1.146335365E1
5.700931667E-1,-3.514522178E0,9.859647539E0,-6.915471547E0,1.254544788E1
5.800401666E-1,-2.455795491E0,1.125913884E1,-7.843643357E0,1.393993831E1
5.899881667E-1,-2.964421391E0,1.231491327E1,-7.369549942E0,1.465452658E1
5.999351667E-1,-3.663616236E0,1.306173603E1,-5.150543881E0,1.451065589E1
6.098821667E-1,-3.743802028E0,1.311489306E1,-2.394840022E0,1.384744498E1
6.198291667E-1,-3.526212516E0,1.221116379E1,-6.604126024E-1,1.272724795E1
6.297761667E-1,-2.817073896E0,1.076376040E1,1.810009260E-2,1.112630985E1
6.397241667E-1,-2.328253684E0,9.096788210E0,4.536076580E-1,9.400961698E0
6.496711667E-1,-3.084179385E0,7.595098684E0,7.878391459E-1,8.235191377E0
6.596181667E-1,-4.263932911E0,6.733352414E0,1.138864532E0,8.050849087E0
6.695651667E-1,-5.394192095E0,6.448880110E0,1.339885958E0,8.513557271E0
6.795131667E-1,-6.157589368E0,6.265764611E0,1.503268273E0,8.912661134E0
6.894601667E-1,-6.706134210E0,6.215818865E0,1.809112151E0,9.321026069E0
6.994071667E-1,-7.148301827E0,6.088948318E0,2.156774729E0,9.634582911E0
7.093541667E-1,-7.450021078E0,5.805310412E0,2.225922732E0,9.703565069E0
7.193011667E-1,-7.317305655E0,5.691772102E0,1.898879775E0,9.462820727E0
7.292491667E-1,-6.789863999E0,6.047215571E0,1.152482112E0,9.165112345E0
7.391961667E-1,-5.783644724E0,6.872303308E0,-6.561599225E-1,9.006089323E0
7.491431667E-1,-4.459517596E0,8.145501772E0,-3.720946432E0,1.000409609E1
7.590901667E-1,-3.852899378E0,9.310810921E0,-5.574326098E0,1.151560442E1
7.690381667E-1,-4.284458976E0,9.614701243E0,-4.134892462E0,1.130912925E1
7.789851667E-1,-4.411570428E0,9.442488463E0,-2.836652713E0,1.080134902E1
7.889321667E-1,-3.508423532E0,9.144582766E0,-3.326621318E0,1.034402431E1
7.988791667E-1,-2.145002530E0,8.131623990E0,-3.769222798E0,9.215822539E0
8.088261667E-1,-1.374020249E0,6.102147238E0,-1.019697107E0,6.337500671E0
8.187741667E-1,-7.081937099E-1,3.583090721E0,1.463545214E0,3.934722613E0
8.287211667E-1,8.552938682E-1,3.802426797E-1,-1.344284234E0,1.638051342E0
8.386681667E-1,2.996053074E0,-3.120712203E0,-4.954141170E0,6.577134133E0
8.486151667E-1,5.746642374E0,-6.692876233E0,-2.973178182E0,9.309042880E0
8.585621667E-1,9.285146322E0,-1.062249166E1,3.282203529E0,1.448530743E1
8.685101667E-1,1.229869310E1,-1.616409674E1,6.719927791E0,2.139376790E1
8.784571667E-1,1.539657485E1,-2.206887005E1,7.142332989E0,2.784066204E1
8.884041667E-1,2.079607153E1,-2.545347703E1,7.199521097E0,3.364801909E1
8.983511667E-1,2.636931941E1,-2.340832682E1,6.896119602E0,3.592836256E1
9.082991667E-1,3.023651815E1,-1.760454896E1,3.122539458E0,3.512716081E1
9.182461667E-1,2.832189884E1,-8.358918711E0,-5.133196946E0,2.997250718E1
9.281931667E-1,1.539062706E1,-5.874644356E0,-1.143614810E0,1.651334922E1
9.381401667E-1,6.757143565E0,-7.184876745E0,5.165252552E0,1.113378987E1
9.480871667E-1,4.479223883E0,-9.280965562E0,5.610099363E0,1.173341311E1
9.580351667E-1,2.739482514E0,-1.136805727E1,5.246775602E0,1.281663547E1
9.679821667E-1,7.358545482E-2,-1.258266546E1,3.812063593E0,1.314765050E1
9.779291667E-1,-2.674370844E0,-1.395498125E1,1.748732450E-1,1.421000850E1
9.878761667E-1,-3.346121782E0,-1.338850183E1,-6.152150288E0,1.510951572E1
9.978241667E-1,-1.994526774E0,-8.571574343E0,-8.069131288E0,1.193988708E1
1.007771167E0,-2.289222350E0,-5.173678975E0,-5.614340934E0,7.970465307E0
1.017718167E0,-2.863669773E0,-2.904151801E0,-2.916335644E0,5.013952118E0
1.027665167E0,-2.668024276E0,-4.778905964E-1,-1.077364760E0,2.916752952E0
1.037612167E0,-2.849721825E0,1.741651654E0,3.842556238E-2,3.340021180E0
1.047560167E0,-3.817105647E0,3.697752281E0,8.224243301E-1,5.377736442E0
1.057507167E0,-4.325306455E0,5.471299912E0,1.026420893E0,7.049605557E0
1.067454167E0,-4.301076763E0,7.084287094E0,1.810502619E-1,8.289702296E0
1.077401167E0,-4.033585943E0,8.975147998E0,-1.719461471E0,9.988976168E0
1.087349167E0,-3.235248633E0,1.157504636E1,-5.267464805E0,1.312229848E1
1.097296167E0,-2.364302938E0,1.404229187E1,-7.157341622E0,1.593748501E1
1.107243167E0,-2.170598132E0,1.562033960E1,-5.452186534E0,1.668630707E1
1.117190167E0,-2.066965005E0,1.642029484E1,-3.279667591E0,1.687171142E1
1.127137167E0,-2.044216998E0,1.695434794E1,-1.757367800E0,1.716732591E1
1.137085167E0,-1.511134533E0,1.716931498E1,-2.001287325E0,1.735148568E1
1.147032167E0,1.451115203E-1,1.618592557E1,-3.117589206E0,1.648407129E1
1.156979167E0,-5.644480991E-1,1.354187780E1,-3.676658451E0,1.404346373E1
1.166926167E0,-2.974410190E0,1.063937141E1,-3.553301497E0,1.160470988E1
1.176873167E0,-4.133541756E0,8.825426533E0,-2.766299014E0,1.013048524E1
1.186821167E0,-4.815328270E0,7.542812297E0,-1.716502195E0,9.111958269E0
1.196768167E0,-5.138475813E0,6.621737838E0,-6.979202250E-1,8.410614621E0
1.206715167E0,-5.292342369E0,5.912077646E0,-1.998651400E-4,7.934831434E0
1.216662167E0,-5.467454783E0,5.153412525E0,3.912640965E-1,7.523550362E0
1.226610167E0,-6.060410398E0,4.263028346E0,6.560488254E-1,7.438574119E0
1.236557167E0,-6.905115543E0,3.238935302E0,1.041508391E0,7.697795937E0
1.246504167E0,-7.669412118E0,2.411889918E0,1.469678943E0,8.172946311E0
1.256451167E0,-8.221824893E0,2.259264141E0,1.682385446E0,8.690978070E0
1.266398167E0,-8.539320517E0,2.826332962E0,1.575670252E0,9.131861236E0
1.276346167E0,-8.851267133E0,3.840975736E0,1.082254055E0,9.709237782E0
1.286293167E0,-8.852514929E0,4.637716756E0,5.297776186E-1,1.000780204E1
1.296240167E0,-8.329639363E0,4.825070316E0,1.035367645E0,9.681744762E0
1.306187167E0,-6.721018297E0,4.324746292E0,5.807291595E-1,8.013286704E0
1.316135167E0,-3.757895572E0,2.212633181E0,-3.014963554E0,5.301653512E0
1.326082167E0,3.820769513E-1,-2.201921082E-1,-6.623786702E0,6.638449942E0
1.336029167E0,4.994839545E0,-1.501714668E0,-1.624006845E0,5.462688647E0
1.345976167E0,1.034492434E1,-4.931751012E0,4.367042127E0,1.226420338E1
1.355923167E0,1.905294638E1,-1.323280100E1,7.049710754E0,2.424500381E1
1.365871167E0,2.795634729E1,-2.315771048E1,9.243235234E0,3.746030307E1
1.375818167E0,3.412937681E1,-3.016840510E1,1.044943279E1,4.673475873E1
1.385765167E0,3.867180267E1,-3.153823231E1,1.039115944E1,5.097199833E1
1.395712167E0,3.928129538E1,-2.263256269E1,3.622907921E0,4.547942966E1
1.405660167E0,2.848049872E1,-1.118801565E1,-1.720659682E1,3.510523430E1
1.415607167E0,1.452884103E1,-7.493465890E0,-1.728921564E1,2.379403770E1
1.425553125E0,7.358858893E0,-7.023455002E0,2.919735800E0,1.058331619E1
1.435500125E0,3.712337576E0,-7.046370240E0,5.461580086E0,9.657206680E0
1.445447125E0,8.186446899E-1,-7.949989007E0,3.896445347E0,8.891276099E0
1.455395125E0,-1.362350961E0,-7.994440709E0,2.526733326E0,8.494201769E0
1.465342125E0,-3.437723678E0,-7.163100545E0,1.479681775E0,8.081918810E0
1.475289125E0,-5.276202300E0,-6.008342696E0,2.735923898E-1,8.000834048E0
1.485236125E0,-6.054552072E0,-4.147538236E0,-1.366563880E0,7.465063366E0
1.495184125E0,-6.099003775E0,-1.706154962E0,-2.428663241E0,6.782862002E0
1.505131125E0,-6.137745672E0,7.256330305E-1,-2.539224148E0,6.681775550E0
1.515078125E0,-6.215968553E0,2.685300459E0,-2.047086811E0,7.073872209E0
1.525025125E0,-6.152450835E0,4.373489851E0,-1.584371493E0,7.712995383E0
1.534972125E0,-6.074830216E0,6.023967626E0,-1.501613511E0,8.685999727E0
1.544920125E0,-5.520220057E0,7.534831433E0,-1.667048784E0,9.488180323E0
1.554867125E0,-4.469356706E0,9.065797382E0,-2.417148904E0,1.039261470E1
1.564814125E0,-3.922062584E0,1.102904857E1,-4.151679819E0,1.242010195E1
1.574761125E0,-3.489563922E0,1.315637789E1,-5.143132535E0,1.455057208E1
1.584709125E0,-2.962062040E0,1.473986470E1,-4.611608938E0,1.572591364E1
1.594656125E0,-2.478979701E0,1.535617760E1,-3.304929317E0,1.590220389E1
1.604603125E0,-2.421288732E0,1.529757915E1,-2.516162145E0,1.569106876E1
1.614550125E0,-2.218037762E0,1.477356805E1,-2.491395679E0,1.514546324E1
1.624497125E0,-2.067546803E0,1.354293264E1,-3.016278593E0,1.402796175E1
1.634445125E0,-2.444281738E0,1.208022592E1,-3.813516626E0,1.290152241E1
1.644392125E0,-3.929532986E0,1.006412935E1,-4.750062819E0,1.180216191E1
1.654339125E0,-5.064754702E0,8.409926897E0,-5.159363236E0,1.109043009E1
1.664286125E0,-5.520287885E0,7.396609102E0,-4.450281919E0,1.024638540E1
1.674234125E0,-5.750600939E0,6.702849244E0,-3.027102959E0,9.336002971E0
1.684181125E0,-5.933727547E0,6.104667973E0,-1.414180681E0,8.629947894E0
1.694128125E0,-6.003281931E0,5.441612429E0,4.031421304E-2,8.102602360E0
1.704075125E0,-5.988748677E0,4.577104518E0,1.061457921E0,7.611943865E0
1.714022125E0,-6.036950199E0,3.602750815E0,1.559654728E0,7.201187680E0
1.723970125E0,-6.133481297E0,2.605917490E0,1.799725031E0,6.902855132E0
1.733917125E0,-6.297861148E0,1.835600622E0,1.957480570E0,6.845744288E0
1.743864125E0,-6.686764723E0,2.060342449E0,2.191957426E0,7.332292331E0
1.753811125E0,-6.632982618E0,3.222905161E0,2.019294995E0,7.645987730E0
1.763759125E0,-5.666554815E0,4.818629023E0,-2.146921988E-1,7.441446222E0
1.773706125E0,-3.845366410E0,6.553396166E0,-5.846930308E0,9.587514702E0
1.783653125E0,-3.518705860E0,6.097630849E0,-3.808245946E0,8.004069595E0
1.793600125E0,-4.019890594E0,3.247129591E0,-9.973700988E-1,5.262900159E0
1.803547125E0,-3.064718682E0,-6.021562082E-1,3.566801183E-1,3.143614703E0
1.813495125E0,-5.411334962E-1,-1.209901770E0,3.452732896E0,3.698385080E0
1.823442125E0,4.276624292E0,-2.851521598E0,3.253459786E0,6.083230337E0
1.833389125E0,1.317042641E1,-8.256250375E0,1.638355912E0,1.563041945E1
1.843336125E0,2.514518376E1,-1.851371966E1,-1.925210956E0,3.128489283E1
1.853284125E0,3.280261786E1,-2.874238615E1,-2.530928704E0,4.368686416E1
1.863231125E0,3.601610023E1,-3.292353360E1,3.887748199E0,4.895133426E1
1.873178125E0,3.820435520E1,-2.983029804E1,8.147474037E0,4.915079624E1
1.883125125E0,2.987982864E1,-1.869985525E1,4.331543096E0,3.551409595E1
1.893072125E0,1.477509651E1,-9.321230659E0,-2.799921856E-1,1.747189782E1
1.903020125E0,1.070185358E1,-6.373882552E0,-5.492553153E-1,1.246826894E1
1.912967125E0,8.697656100E0,-5.778832465E0,7.788838428E-2,1.044271004E1
1.922914125E0,6.172227872E0,-5.921525577E0,-1.892568290E-2,8.553433243E0
1.932861125E0,3.523497069E0,-5.870637259E0,-8.206771821E-1,6.895862851E0
1.942808125E0,1.128826616E0,-5.401550816E0,-2.364632136E0,6.003539446E0
1.952756125E0,-1.379096802E0,-4.498071797E0,-4.313858777E0,6.383097636E0
1.962703125E0,-3.441763519E0,-3.222749040E0,-5.728313107E0,7.419259973E0
1.972650125E0,-4.372335026E0,-1.676779720E0,-5.803235820E0,7.456973233E0
1.982597125E0,-4.883292797E0,-1.795410955E-1,-4.563812628E0,6.686341993E0
1.992545125E0,-5.812657439E0,9.859627658E-1,-2.757734013E0,6.508779145E0
2.002492125E0,-6.507413662E0,1.989544362E0,-1.450989488E0,6.957735970E0
2.012439125E0,-6.794196201E0,3.238466941E0,-1.568750657E0,7.688286465E0
2.022386125E0,-7.246725669E0,5.115474620E0,-2.761016055E0,9.290119653E0
2.032333125E0,-7.672450916E0,7.522566898E0,-4.469695845E0,1.163759841E1
2.042281125E0,-7.766387604E0,9.779974548E0,-5.103544546E0,1.349113952E1
2.052228125E0,-7.847628819E0,1.159320899E1,-3.755644979E0,1.449457284E1
2.062175125E0,-7.612555547E0,1.304614735E1,-2.059724398E0,1.524452122E1
2.072122125E0,-6.772439296E0,1.440133664E1,-6.876834315E-1,1.592913493E1
2.082070125E0,-4.908101363E0,1.557958451E1,3.691814288E-1,1.633858034E1
2.092017125E0,-1.516194713E0,1.573008599E1,1.005895266E0,1.583497007E1
2.101964125E0,1.188733095E-1,1.451102456E1,6.977786493E-1,1.452827793E1
2.111911125E0,-8.971330351E-1,1.262370239E1,-6.058592498E-2,1.265568569E1
2.121858125E0,-2.615563642E0,1.062312784E1,-7.344529706E-1,1.096500978E1
2.131806125E0,-3.712187303E0,9.188350929E0,-1.131124645E0,9.974245351E0
2.141753125E0,-4.289783451E0,8.200801814E0,-1.188186380E0,9.330979548E0
2.151700125E0,-4.566256179E0,7.356403647E0,-1.344627466E0,8.762156877E0
2.161647125E0,-4.413414640E0,6.439956674E0,-1.780445591E0,8.007574992E0
2.171595125E0,-4.109728385E0,5.507133404E0,-2.469784954E0,7.301932857E0
2.181542125E0,-3.814048138E0,4.973396636E0,-3.194094760E0,7.034477851E0
2.191489125E0,-3.522259213E0,5.121862704E0,-3.626012793E0,7.196371050E0
2.201436125E0,-3.521848739E0,5.643705651E0,-3.760083600E0,7.641535231E0
2.211384125E0,-3.838273153E0,5.933086107E0,-3.108777452E0,7.719996684E0
2.221331125E0,-4.302886477E0,5.915482480E0,-2.026411057E0,7.590395693E0
2.231278125E0,-4.966309226E0,5.477862242E0,-2.010386177E0,7.662431380E0
2.241225125E0,-6.385969332E0,4.301604767E0,-3.005880489E0,8.265574716E0
2.251172125E0,-7.755774323E0,2.903025042E0,-6.913467121E-1,8.310087246E0
2.261120125E0,-8.324260510E0,2.382119404E0,5.217020291E0,1.010866493E1
2.271067125E0,-8.902626736E0,2.276212295E0,6.100173218E0,1.102950672E1
2.281014125E0,-8.279120005E0,2.101381132E0,5.041537163E0,9.918504307E0
2.290961125E0,-5.531892854E0,1.542121267E0,4.541967430E0,7.321847082E0
2.300909125E0,-7.371456134E-1,-3.251747721E-1,3.067155801E0,3.171209075E0
2.310856125E0,5.427699564E0,-4.643145311E0,-2.181259360E0,7.468374209E0
2.320803125E0,9.423820058E0,-9.969598582E0,-3.727140387E0,1.421593668E1
2.330750125E0,1.123139965E1,-1.572651685E1,2.716007112E0,1.951523418E1
2.340697125E0,1.218246565E1,-2.075908906E1,8.794525752E0,2.562607913E1
2.350645125E0,1.453919294E1,-2.435056820E1,1.195987502E1,3.077948852E1
2.360592125E0,2.225860752E1,-2.672819577E1,1.400840492E1,3.749769948E1
2.370539125E0,3.243051508E1,-2.604468433E1,1.181693749E1,4.324007287E1
2.380486125E0,3.808201741E1,-2.158118186E1,7.470775770E0,4.440495413E1
2.390433125E0,2.958265443E1,-1.102313820E1,-2.580994903E0,3.167498309E1
2.400381125E0,1.871602631E1,-1.419182389E0,-1.622214439E1,2.480850032E1
2.410328125E0,1.172494091E1,-9.195126683E-1,-7.231346322E0,1.380623455E1
2.420275125E0,5.597958789E0,-2.206756144E0,3.968084264E-1,6.030287905E0
2.430223292E0,1.813115739E0,-3.893611202E0,5.960967386E-1,4.336234334E0
2.440171292E0,-1.329494871E0,-6.718898097E0,2.023726015E0,7.141891572E0
2.450118292E0,-4.451450778E0,-8.794503533E0,9.499561965E-2,9.857369354E0
2.460065292E0,-7.146270504E0,-8.653338883E0,-4.458890775E0,1.207605742E1
2.470012292E0,-8.094226953E0,-5.964899054E0,-5.557312455E0,1.148826586E1
2.479959292E0,-8.528072228E0,-2.550276555E0,-3.503377385E0,9.565854877E0
2.489907292E0,-8.131538621E0,6.568446314E-1,-1.432171394E0,8.282782148E0
2.499854292E0,-6.488380390E0,3.452850425E0,-4.118831331E-1,7.361447131E0
2.509801292E0,-5.230201669E0,5.866724887E0,-2.398691583E-1,7.863269525E0
2.519748292E0,-4.069438730E0,7.785040222E0,-8.760672712E-1,8.828061889E0
2.529696292E0,-2.938724048E0,9.693032298E0,-2.517444440E0,1.043688175E1
2.539643292E0,-2.262039229E0,1.191116888E1,-4.561790661E0,1.295386813E1
2.549590292E0,-1.963925956E0,1.373621586E1,-3.826113283E0,1.439374080E1
2.559537292E0,-1.563678782E0,1.526587788E1,-2.146307629E0,1.549512037E1
2.569484292E0,-4.281559342E-1,1.677216390E1,-1.956049318E0,1.689126782E1
2.579432292E0,7.842461050E-1,1.744095440E1,-2.998308930E0,1.771416915E1
2.589379292E0,1.270904601E0,1.616350968E1,-4.893338313E0,1.693573157E1
2.599326292E0,1.514925867E0,1.409960862E1,-5.895890214E0,1.535758721E1
2.609273292E0,-2.107927090E-1,1.136811223E1,-6.254433292E0,1.297676173E1
2.619221292E0,-3.214142523E0,9.051662323E0,-6.166078355E0,1.141419403E1
2.629168292E0,-4.788127608E0,8.109685237E0,-4.928905172E0,1.062954688E1
2.639115292E0,-5.468390338E0,7.584304140E0,-3.282154997E0,9.909465354E0
2.649062292E0,-6.090417139E0,7.034726679E0,-1.362651508E0,9.404115031E0
2.659010292E0,-6.468172413E0,6.761083419E0,1.243624417E0,9.439073315E0
2.668957292E0,-7.254435223E0,6.399520839E0,3.440695817E0,1.026737966E1
2.678904292E0,-8.384445900E0,5.868433444E0,4.645868944E0,1.123928567E1
2.688851292E0,-9.388064334E0,5.354190708E0,5.275416434E0,1.202635143E1
2.698798292E0,-9.960392725E0,4.425157018E0,5.117522900E0,1.204078397E1
2.708746292E0,-9.625027426E0,3.256783344E0,4.452583383E0,1.109384016E1
2.718693292E0,-8.593983797E0,2.087370619E0,3.772969694E0,9.615038945E0
