"Time (s)","Linear Acceleration x (m/s^2)","Linear Acceleration y (m/s^2)","Linear Acceleration z (m/s^2)","Absolute acceleration (m/s^2)"
-2.152500092E-4,-1.170145089E0,-8.260513580E-1,1.474348530E0,2.055554417E0
9.732749983E-3,-6.545963770E-1,2.292745882E-1,1.371368537E0,1.536787206E0
1.968075000E-2,-2.277627906E-1,1.028657965E0,1.273558652E0,1.652865614E0
2.962875000E-2,1.413441592E-1,1.573672843E0,1.216245414E0,1.993910052E0
3.957674999E-2,4.518237090E-1,1.749062415E0,1.163498851E0,2.148742324E0
4.952474998E-2,7.359466419E-1,1.582385194E0,1.045730008E0,2.034480674E0
5.947275000E-2,1.006173959E0,1.180130087E0,9.032919804E-1,1.794722669E0
6.941974998E-2,1.324801019E0,8.222126609E-1,7.757069043E-1,1.741508714E0
7.936775000E-2,1.639900746E0,4.771748972E-1,6.738671187E-1,1.836046632E0
8.931575000E-2,1.979690926E0,1.962348962E-1,6.060347394E-1,2.079654395E0
9.926374999E-2,2.282527873E0,9.605805874E-2,4.891372041E-1,2.336325287E0
1.092117500E-1,2.578719167E0,1.204292536E-2,3.281293702E-1,2.599539662E0
1.191597500E-1,2.801146958E0,-3.176090598E-2,2.388214103E-1,2.811488698E0
1.291077500E-1,2.924724352E0,-1.070461464E-1,1.894440130E-1,2.932807605E0
1.390557500E-1,3.092803735E0,-2.337675887E-1,1.354355478E-1,3.104581295E0
1.490037500E-1,3.117895892E0,-4.641525632E-1,1.439455855E-1,3.155540006E0
1.589517500E-1,3.101568712E0,-6.642770272E-1,1.160263733E-1,3.174028129E0
1.688997500E-1,3.068281682E0,-7.864686316E-1,9.455422796E-2,3.168884014E0
1.788477500E-1,2.936113851E0,-8.503786987E-1,1.258624864E-1,3.059370825E0
1.887957500E-1,2.870238827E0,-8.130822337E-1,2.731983606E-1,2.995665366E0
1.987427500E-1,2.762142228E0,-8.006715184E-1,3.378545324E-1,2.895626056E0
2.086907500E-1,2.631030404E0,-7.063570994E-1,4.739507425E-1,2.765120367E0
2.186387500E-1,2.404179779E0,-5.669366741E-1,4.754405399E-1,2.515460457E0
2.285867500E-1,2.317876046E0,-3.566281146E-1,3.773079622E-1,2.375309301E0
2.385347500E-1,2.169505872E0,-1.103714579E-1,3.966447774E-1,2.208226589E0
2.484827500E-1,2.008301353E0,1.227219468E-1,4.647870592E-1,2.065033174E0
2.584307500E-1,1.847013803E0,3.647680235E-1,4.395843903E-1,1.933326184E0
2.683787500E-1,1.708959579E0,5.628395301E-1,3.469890527E-1,1.832411685E0
2.783267500E-1,1.573574025E0,7.805968577E-1,2.866938074E-1,1.779792124E0
2.882747500E-1,1.397853500E0,9.836630559E-1,2.613108250E-1,1.729124276E0
2.982227500E-1,1.188367936E0,1.170820150E0,1.882674801E-1,1.678833768E0
3.081707500E-1,9.815352541E-1,1.324801896E0,3.217496194E-2,1.649104832E0
3.181177500E-1,7.384758550E-1,1.356000300E0,-1.749428451E-1,1.553926768E0
3.280657500E-1,5.198692194E-1,1.251170248E0,-3.554627645E-1,1.400730086E0
3.380137500E-1,2.946634161E-1,9.848418546E-1,-4.913497174E-1,1.139370244E0
3.479617500E-1,5.416948289E-2,6.730729938E-1,-6.290703571E-1,9.228711188E-1
3.579097500E-1,-2.073919684E-1,3.942619640E-1,-7.512468318E-1,8.733989507E-1
3.678577500E-1,-4.847297922E-1,1.544869459E-1,-9.059126294E-1,1.038993205E0
3.778057500E-1,-8.347517225E-1,2.266029954E-2,-1.062895094E0,1.351691499E0
3.877537500E-1,-1.228444752E0,-4.226309001E-2,-1.240085682E0,1.746045583E0
3.977017500E-1,-1.611052046E0,-5.715360940E-2,-1.409095942E0,2.141099391E0
4.076497500E-1,-1.937502096E0,-1.617164433E-2,-1.512804497E0,2.458201241E0
4.175977500E-1,-2.166483008E0,9.586860895E-2,-1.510113609E0,2.642590117E0
4.275457500E-1,-2.304660315E0,2.342552465E-1,-1.463292614E0,2.739992694E0
4.374937500E-1,-2.358131202E0,4.132847106E-1,-1.342987322E0,2.745032234E0
4.474417500E-1,-2.318241497E0,5.697912848E-1,-1.220646029E0,2.681209144E0
4.573887500E-1,-2.209569824E0,6.618059939E-1,-1.040350642E0,2.530319237E0
4.673367500E-1,-2.064774054E0,7.565057445E-1,-8.092335963E-1,2.343171323E0
4.772847500E-1,-1.887297172E0,8.836826849E-1,-5.556491359E-1,2.156740982E0
4.872327500E-1,-1.694167001E0,9.539007282E-1,-3.526794899E-1,1.975983615E0
4.971807500E-1,-1.487396737E0,1.053218025E0,-1.812834927E-1,1.831524220E0
5.071287500E-1,-1.284580654E0,1.164743723E0,-5.169632994E-2,1.734776040E0
5.170767500E-1,-1.152873583E0,1.246369100E0,5.882415891E-2,1.698827158E0
5.270247500E-1,-1.061946310E0,1.325656759E0,5.064397730E-2,1.699311808E0
5.369727500E-1,-1.074815301E0,1.389306040E0,-8.401739918E-2,1.758538634E0
5.469207500E-1,-1.139849203E0,1.416171657E0,-2.885436472E-1,1.840667217E0
5.568687500E-1,-1.216857033E0,1.424693390E0,-4.863597035E-1,1.935726751E0
5.668167500E-1,-1.397086346E0,1.351574543E0,-6.933335960E-1,2.063810911E0
5.767637500E-1,-1.609832463E0,1.205038056E0,-8.168794155E-1,2.170476734E0
5.867117500E-1,-1.781706543E0,1.124901381E0,-8.597898654E-1,2.275767988E0
5.966597500E-1,-1.925768927E0,8.935463530E-1,-9.064284269E-1,2.308381151E0
6.066077500E-1,-2.133183992E0,5.082013929E-1,-1.026521977E0,2.421257931E0
6.165557500E-1,-2.151413271E0,3.472509348E-1,-1.192226368E0,2.484062396E0
6.265037500E-1,-2.172915384E0,2.512098330E-1,-1.227516653E0,2.508279246E0
6.364517500E-1,-2.169011198E0,1.648055273E-1,-1.113977539E0,2.443914155E0
6.463997500E-1,-2.224002653E0,3.971194983E-2,-9.093237488E-1,2.403046924E0
6.563477500E-1,-2.352635404E0,-1.542442864E-1,-6.275570977E-1,2.439777153E0
6.662957500E-1,-2.500793908E0,-3.533811557E-1,-2.742426002E-1,2.540483697E0
6.762437500E-1,-2.630888025E0,-4.853697699E-1,-4.830143653E-2,2.675722078E0
6.861917500E-1,-2.698717480E0,-6.003862560E-1,1.386597025E-1,2.768170191E0
6.961397500E-1,-2.827166483E0,-6.969617933E-1,2.553900075E-1,2.922986506E0
7.060877500E-1,-3.049159533E0,-8.237960869E-1,2.193115906E-1,3.166087716E0
7.160347500E-1,-3.450785188E0,-1.036468676E0,1.830494980E-1,3.607726826E0
7.259827500E-1,-3.900099272E0,-1.274181381E0,9.474009633E-2,4.104057530E0
7.359307500E-1,-4.291356644E0,-1.791564072E0,-7.296594232E-4,4.650316570E0
7.458790833E-1,-4.602155452E0,-2.576335257E0,-4.936811484E-2,5.274445504E0
7.558270833E-1,-4.505846255E0,-3.373477980E0,9.253109135E-2,5.629526282E0
7.657750833E-1,-4.057225359E0,-4.029347296E0,4.160504436E-1,5.733220318E0
7.757230833E-1,-3.600209322E0,-4.489367048E0,7.307079752E-1,5.800849748E0
7.856710833E-1,-3.165981055E0,-4.635207131E0,9.575880555E-1,5.694344218E0
7.956190833E-1,-2.626055593E0,-4.151177543E0,1.348054519E0,5.093691584E0
8.055670833E-1,-1.969863950E0,-2.997372791E0,1.677056293E0,3.959434990E0
8.155150833E-1,-1.348059781E0,-1.649366804E0,1.825858576E0,2.805607878E0
8.254630833E-1,-9.480444494E-1,-4.548853111E-1,1.872452699E0,2.147507400E0
8.354110833E-1,-7.880926958E-1,6.517984843E-1,1.796435387E0,2.067150566E0
8.453580833E-1,-7.052006663E-1,1.600247853E0,1.672848637E0,2.420025565E0
8.553060833E-1,-5.639820760E-1,2.271284847E0,1.563600429E0,2.814543824E0
8.652540833E-1,-3.519947809E-1,2.489074334E0,1.452119755E0,2.903109221E0
8.752020833E-1,-1.098674279E-1,2.287516133E0,1.319855736E0,2.643259366E0
8.851500833E-1,2.454713756E-1,1.752516950E0,1.186735686E0,2.130707264E0
8.950980833E-1,5.827940306E-1,9.755307484E-1,1.094376576E0,1.577646733E0
9.050460833E-1,9.039035261E-1,9.606156707E-2,1.070256811E0,1.404179138E0
9.149940833E-1,1.294406023E0,-6.715527177E-1,1.032791435E0,1.786932610E0
9.249420833E-1,1.779599499E0,-1.196608125E0,1.003464067E0,2.367654011E0
9.348900833E-1,2.380756418E0,-1.495295010E0,1.020101807E0,2.990738368E0
9.448380833E-1,2.887623184E0,-1.606756974E0,1.169287668E0,3.505320139E0
9.547860833E-1,3.398636211E0,-1.482714726E0,1.394121222E0,3.961406951E0
9.647340833E-1,3.745117067E0,-1.138989662E0,1.661210339E0,4.252389809E0
9.746820833E-1,3.909005751E0,-6.243674415E-1,1.903991411E0,4.392646578E0
9.846290833E-1,3.979015633E0,-1.286077541E-1,2.042754024E0,4.474589296E0
9.945770833E-1,3.822396208E0,3.247181046E-1,1.995089861E0,4.323949372E0
1.004525083E0,3.458960473E0,8.017561769E-1,1.755624161E0,3.960989360E0
1.014473083E0,2.868430868E0,1.236879653E0,1.411930672E0,3.428019128E0
1.024421083E0,2.261642496E0,1.629420197E0,1.078930571E0,2.989001193E0
1.034369083E0,1.676785860E0,1.949754059E0,8.327182802E-1,2.703067044E0
1.044317083E0,1.243040280E0,2.304732090E0,5.219283529E-1,2.670083959E0
1.054265083E0,8.700782606E-1,2.508083632E0,2.505368916E-1,2.666512407E0
1.064213083E0,6.732185894E-1,2.700388615E0,5.658120353E-2,2.783616958E0
1.074161083E0,5.486062378E-1,2.818318183E0,-1.362521846E-2,2.871249177E0
1.084109083E0,5.922849387E-1,2.832149772E0,-2.338411175E-2,2.893513538E0
1.094057083E0,6.978005764E-1,2.780039386E0,-1.792869609E-2,2.866333210E0
1.104005083E0,7.729150781E-1,2.577974231E0,-2.356775086E-2,2.691450221E0
1.113952083E0,7.583764149E-1,2.387833888E0,-8.862149678E-2,2.506938219E0
1.123900083E0,6.105675741E-1,2.157509140E0,-2.077235420E-1,2.251840918E0
1.133848083E0,5.315298830E-1,1.911703303E0,-3.481034954E-1,2.014524654E0
1.143796083E0,3.220275083E-1,1.591643676E0,-4.327910221E-1,1.680577096E0
1.153744083E0,1.637411879E-1,1.330788860E0,-4.406122577E-1,1.411364350E0
1.163692083E0,-6.227606267E-2,1.056708813E0,-3.891964845E-1,1.127823446E0
1.173640083E0,-3.560344760E-1,8.569351816E-1,-3.696247208E-1,9.988597939E-1
1.183588083E0,-6.568699206E-1,7.159617358E-1,-4.438633096E-1,1.068219986E0
1.193536083E0,-8.884431955E-1,6.598723197E-1,-5.329877400E-1,1.228347964E0
1.203484083E0,-1.118168166E0,5.926667619E-1,-5.474104822E-1,1.378844506E0
1.213432083E0,-1.358667654E0,5.466474205E-1,-5.274258685E-1,1.556592189E0
1.223380083E0,-1.586255466E0,4.495082116E-1,-5.129879236E-1,1.726679080E0
1.233328083E0,-1.826146552E0,2.941903764E-1,-5.059583644E-1,1.917642582E0
1.243275083E0,-2.043878736E0,2.534767985E-2,-5.075629135E-1,2.106110848E0
1.253223083E0,-2.232064940E0,-3.413277054E-1,-5.069278693E-1,2.314215712E0
1.263171083E0,-2.486781641E0,-8.737909502E-1,-5.348763907E-1,2.689551321E0
1.273119083E0,-2.724203447E0,-1.489488725E0,-5.809208385E-1,3.158691201E0
1.283067083E0,-2.939422790E0,-2.058864273E0,-6.571369922E-1,3.648418488E0
1.293015083E0,-3.098316490E0,-2.479252766E0,-7.123230135E-1,4.031583241E0
1.302963083E0,-3.266221919E0,-2.724636433E0,-7.253623044E-1,4.314858027E0
1.312911083E0,-3.416224051E0,-2.812429453E0,-7.569969106E-1,4.489252779E0
1.322859083E0,-3.563811282E0,-2.780612998E0,-8.023373902E-1,4.590893680E0
1.332807083E0,-3.751161334E0,-2.905368606E0,-8.680518349E-1,4.823473031E0
1.342755083E0,-3.857446173E0,-3.332325861E0,-9.618563768E-1,5.187432343E0
1.352703083E0,-3.787433367E0,-3.708143368E0,-9.751389849E-1,5.389422491E0
1.362651083E0,-3.724412661E0,-3.845551767E0,-9.582183854E-1,5.438538456E0
1.372599083E0,-3.551566628E0,-4.060425248E0,-9.107318314E-1,5.470841907E0
1.382547083E0,-3.221398918E0,-4.010384776E0,-7.762026751E-1,5.202219491E0
1.392494083E0,-2.701046134E0,-3.382016670E0,-3.923609611E-1,4.345990577E0
1.402442083E0,-2.155869288E0,-2.418486747E0,1.433609370E-1,3.243054562E0
1.412390083E0,-1.286813413E0,-1.607165110E0,4.927916408E-1,2.117005444E0
1.422338083E0,-3.264763623E-2,-9.490177184E-1,1.268302152E0,1.584389739E0
1.432286083E0,9.880123611E-1,-6.784208572E-1,2.111692551E0,2.428099815E0
1.442234083E0,1.948504802E0,-3.616608131E-1,2.298794096E0,3.035115122E0
1.452182083E0,2.713847151E0,-6.657815158E-2,2.502453933E0,3.692109789E0
1.462130083E0,3.228131987E0,-6.448134005E-2,2.544134055E0,4.110670512E0
1.472078083E0,3.321922203E0,-3.814887214E-1,2.243353282E0,4.026578537E0
1.482026083E0,3.222549650E0,-6.918869948E-1,1.527657741E0,3.632804982E0
1.491974083E0,3.202425873E0,-8.887241542E-1,8.978259301E-1,3.442594006E0
1.501922083E0,3.191737162E0,-9.079281646E-1,4.463890875E-1,3.348250720E0
1.511870083E0,2.856213696E0,-6.735682529E-1,-9.436704397E-2,2.936078338E0
1.521818083E0,2.200513657E0,-2.079872149E-1,-1.536518173E-1,2.215655189E0
1.531765083E0,2.010646378E0,4.916765767E-1,3.470775649E-2,2.070180993E0
1.541713083E0,2.004445991E0,1.134020113E0,-2.890093048E-1,2.321062629E0
1.551661083E0,2.092414719E0,1.680745302E0,-3.159589756E-1,2.702394161E0
1.561609083E0,1.905025198E0,2.055492768E0,-3.799181592E-1,2.828163598E0
1.571557083E0,1.782211450E0,2.515982636E0,-6.122820508E-1,3.143459175E0
1.581505083E0,1.664554362E0,2.895052364E0,-6.072368538E-1,3.394231284E0
1.591453083E0,1.456179769E0,3.182658775E0,-5.733895882E-1,3.546625441E0
1.601401083E0,1.335171348E0,3.361525687E0,-5.478186178E-1,3.658229450E0
1.611349083E0,1.324424458E0,3.270099792E0,-4.915484496E-1,3.562200539E0
1.621297083E0,1.370998116E0,2.921353140E0,-4.431334309E-1,3.257346656E0
1.631245083E0,1.086234036E0,2.426476382E0,-4.541636185E-1,2.697027365E0
1.641193083E0,7.962998477E-1,2.068625030E0,-6.758900361E-1,2.317354160E0
1.651141083E0,6.153761780E-1,1.805826600E0,-8.228725192E-1,2.077695053E0
1.661088083E0,6.249784756E-1,1.395785340E0,-7.207919745E-1,1.690667289E0
1.671036083E0,5.793953365E-1,9.948107725E-1,-3.805518512E-1,1.212504491E0
1.680984083E0,5.701625830E-1,6.652652067E-1,1.028656796E-2,8.762242748E-1
1.690932083E0,5.847548944E-1,3.822441816E-1,3.947162926E-1,8.024025502E-1
1.700880083E0,6.469873953E-1,1.484894568E-1,7.943210037E-1,1.035175186E0
1.710828083E0,6.945085940E-1,2.454134881E-2,1.138770976E0,1.334070388E0
1.720776083E0,6.831231880E-1,3.443191409E-2,1.444676541E0,1.598415827E0
1.730724083E0,5.798327082E-1,4.290219069E-2,1.697995173E0,1.794779701E0
1.740671208E0,5.299498191E-1,2.730848515E-1,1.896052207E0,1.987570406E0
1.750619208E0,4.956880590E-1,5.346699840E-1,2.074574718E0,2.198963143E0
1.760567208E0,4.226186210E-1,7.246945524E-1,2.197638581E0,2.352318861E0
1.770515208E0,2.822097239E-1,8.955045855E-1,2.259165323E0,2.446507459E0
1.780463208E0,1.318015033E-1,1.090357785E0,2.334764997E0,2.580189785E0
1.790411208E0,-2.962257922E-2,1.260973105E0,2.369077628E0,2.683926131E0
1.800359208E0,-2.420949009E-1,1.376355042E0,2.348121353E0,2.732514782E0
1.810306208E0,-5.031780499E-1,1.458193842E0,2.272297000E0,2.746425147E0
1.820254208E0,-7.485412520E-1,1.514423591E0,2.129524512E0,2.718210343E0
1.830202208E0,-1.006053214E0,1.556501909E0,1.957616372E0,2.695756503E0
1.840150208E0,-1.322698653E0,1.601247143E0,1.652479569E0,2.654093605E0
1.850098208E0,-1.693069040E0,1.537824149E0,1.250351053E0,2.606676743E0
1.860046208E0,-2.177824852E0,1.347711872E0,7.432864324E-1,2.666781411E0
1.869994208E0,-2.714821297E0,1.030824358E0,7.368200697E-2,2.904872212E0
1.879942208E0,-3.334942490E0,6.950503385E-1,-7.267901214E-1,3.483268618E0
1.889890208E0,-4.000702372E0,3.087212920E-1,-1.628836645E0,4.330593160E0
1.899838208E0,-4.607736619E0,-2.378787661E-1,-2.717716838E0,5.354792981E0
1.909786208E0,-4.768740287E0,-1.125662103E0,-3.957889059E0,6.298641512E0
1.919734208E0,-4.458937553E0,-2.161841342E0,-5.243666053E0,7.214687502E0
1.929682208E0,-4.522766928E0,-2.557684978E0,-6.312738218E0,8.176052650E0
1.939630208E0,-4.846575206E0,-2.254487550E0,-6.178197294E0,8.169585494E0
1.949577208E0,-4.953616675E0,-2.588117396E0,-4.754423672E0,7.337657274E0
1.959525208E0,-4.339323401E0,-3.265281687E0,-2.670870116E0,6.051887247E0
1.969473208E0,-3.332484321E0,-3.494486693E0,-6.442718752E-1,4.871547521E0
1.979421208E0,-2.348215494E0,-3.881429113E0,8.152762552E-1,4.609152127E0
1.989369208E0,-1.622428681E0,-4.264249830E0,1.746936368E0,4.885477265E0
1.999317208E0,-1.106934933E0,-3.788253731E0,2.343381600E0,4.589946471E0
2.009265208E0,-7.799603882E-1,-2.407353648E0,2.846998776E0,3.809080181E0
2.019213208E0,-5.893733177E-1,-9.248348039E-1,3.089800898E0,3.278650623E0
2.029161208E0,-1.303052008E-2,7.480869234E-2,2.908937162E0,2.909928100E0
2.039109208E0,1.055125387E0,4.220134342E-1,2.463914934E0,2.713348803E0
2.049057208E0,2.297933824E0,1.305554616E-1,2.117070966E0,3.127224658E0
2.059005208E0,3.365268197E0,-4.949118412E-1,2.016742101E0,3.954392048E0
2.068953208E0,3.999605434E0,-1.349081874E0,2.051992625E0,4.693350537E0
2.078901208E0,4.436681003E0,-2.256296094E0,2.294407661E0,5.480813526E0
2.088849208E0,4.701634717E0,-2.949641384E0,2.554620452E0,6.109978638E0
2.098796208E0,4.858677481E0,-3.385560667E0,2.783786867E0,6.543564564E0
2.108744208E0,4.940339402E0,-3.563355199E0,3.029916054E0,6.803296626E0
2.118692208E0,4.662828793E0,-3.501311563E0,3.118405477E0,6.612534139E0
2.128640208E0,4.042202985E0,-3.093530252E0,2.962450880E0,5.889435423E0
2.138588208E0,3.156530492E0,-2.388388789E0,2.839007971E0,4.871144836E0
2.148536208E0,2.405403602E0,-1.579192615E0,2.598537719E0,3.877139935E0
2.158484208E0,1.933048564E0,-9.199745983E-1,2.163694324E0,3.043781060E0
2.168432208E0,1.703217321E0,-2.939833850E-1,1.798952029E0,2.494715189E0
2.178380208E0,1.384270126E0,4.294692189E-1,1.510760311E0,2.093572141E0
2.188328208E0,1.158467907E0,1.323499137E0,1.260574325E0,2.163965223E0
2.198276208E0,9.435274753E-1,2.186003206E0,1.001234012E0,2.582890563E0
2.208224208E0,8.681916565E-1,2.805268952E0,8.031010365E-1,3.044382026E0
2.218172208E0,7.595524362E-1,3.295749189E0,7.239578763E-1,3.458756659E0
2.228120208E0,6.391559270E-1,3.688686758E0,3.920979825E-1,3.764129531E0
2.238068208E0,4.988727450E-1,3.926712874E0,1.123437238E-1,3.959869837E0
2.248015208E0,3.988771713E-1,4.019876561E0,-2.259492767E-1,4.045931739E0
2.257963208E0,3.071159390E-1,3.917690036E0,-3.941748770E-1,3.949428978E0
2.267911208E0,1.819701751E-1,3.732502869E0,-3.606983614E-1,3.754303413E0
2.277859208E0,1.249149451E-1,3.460942971E0,-3.738335466E-1,3.483314731E0
2.287807208E0,5.358870819E-2,3.009317483E0,-3.565257883E-1,3.030837194E0
2.297755208E0,6.078399941E-2,2.449817297E0,-2.811739079E-1,2.466649195E0
2.307703208E0,1.476505275E-1,1.824699658E0,-2.053752820E-1,1.842147803E0
2.317651208E0,1.699461070E-1,1.135461452E0,-1.453732928E-2,1.148201081E0
2.327599208E0,-1.310448736E-2,5.524712473E-1,3.166384220E-1,6.369113730E-1
2.337547208E0,-8.053297028E-2,2.089344639E-1,4.676018357E-1,5.184502351E-1
2.347495208E0,-3.923980178E-1,-1.645114124E-2,5.111109674E-1,6.445783625E-1
2.357443208E0,-7.497896326E-1,-2.784631205E-1,4.728795326E-1,9.291615871E-1
2.367391208E0,-1.000402757E0,-4.200739127E-1,4.484861183E-1,1.174056032E0
2.377339208E0,-1.235705094E0,-5.352517819E-1,4.814573979E-1,1.430126839E0
2.387287208E0,-1.522509414E0,-4.363122153E-1,5.606509173E-1,1.680099019E0
2.397235208E0,-1.814147919E0,-2.652718019E-1,6.134103441E-1,1.933332370E0
2.407182208E0,-2.006707840E0,-1.363009357E-1,5.707069588E-1,2.090732105E0
2.417130208E0,-2.218227943E0,-9.209773958E-2,4.731122518E-1,2.269989516E0
2.427078208E0,-2.426383119E0,-1.036535919E-1,3.874833234E-1,2.459313407E0
2.437026208E0,-2.684259363E0,-1.804836667E-1,2.980630056E-1,2.706781157E0
2.446974208E0,-2.921356648E0,-3.121588701E-1,2.445293891E-1,2.948145595E0
2.456922208E0,-3.051068357E0,-5.522905684E-1,1.933908105E-1,3.106677163E0
2.466870208E0,-3.127430069E0,-1.028532835E0,1.240510190E-1,3.294554186E0
2.476818208E0,-3.141758671E0,-1.535531455E0,-6.209724750E-3,3.496933365E0
2.486766208E0,-3.122303523E0,-1.938395258E0,-1.184809613E-1,3.676981535E0
2.496714208E0,-3.076914512E0,-2.130619549E0,-2.239448512E-1,3.749279114E0
2.506662208E0,-3.047355375E0,-2.167317844E0,-2.927852539E-1,3.750915171E0
2.516610208E0,-3.079766783E0,-2.178767277E0,-3.792480318E-1,3.791545774E0
2.526558208E0,-3.158863531E0,-2.378918054E0,-5.172668795E-1,3.988136775E0
2.536506208E0,-3.468143232E0,-3.136409054E0,-8.954648244E-1,4.760980622E0
2.546454208E0,-3.652185807E0,-4.181464950E0,-1.013294406E0,5.643569425E0
2.556401208E0,-3.618879189E0,-4.771736108E0,-9.135292125E-1,6.058076237E0
2.566349208E0,-3.311915570E0,-4.356804237E0,-1.081315066E0,5.578509673E0
2.576297208E0,-2.715929344E0,-3.098874607E0,-9.987126195E-1,4.239896571E0
2.586245208E0,-2.163399771E0,-1.705498320E0,-7.815761932E-1,2.863544034E0
2.596193208E0,-1.595798707E0,-6.480077344E-1,-5.256869066E-1,1.800787123E0
2.606141208E0,-1.052112609E0,1.079653287E-1,-2.549292469E-1,1.087927560E0
2.616089208E0,-5.371823864E-1,6.032853055E-1,-2.566658700E-1,8.475821169E-1
2.626037208E0,5.692384306E-1,3.483782780E-1,4.685726197E-1,8.154508663E-1
2.635985208E0,1.565049077E0,-2.583907986E-1,1.490390073E0,2.176558520E0
2.645933208E0,2.224543520E0,-8.465452641E-1,1.977399841E0,3.094405095E0
2.655881208E0,3.014023322E0,-1.112800568E0,2.304608567E0,3.953970452E0
2.665829208E0,3.814022118E0,-1.468677900E0,2.443088176E0,4.761560598E0
2.675777208E0,4.080596972E0,-1.995298607E0,2.501254084E0,5.185437317E0
2.685725208E0,4.385058860E0,-2.415579511E0,2.385837356E0,5.545807918E0
